time[s], wr_x[mm], wr_y[mm], x_heading, y_heading 
0.0004,-1198.6809,-29.8957,204.9712,6.1294
1.9157,-1198.8013,-29.8449,205.0625,6.0965
2.0562,-1198.5413,-27.5050,202.5038,-31.9614
2.2260,-1196.7819,-23.6514,190.2749,-75.6090
2.2652,-1194.7631,-19.8349,180.4961,-96.5494
2.3226,-1189.6414,-21.4691,178.1715,-100.4826
2.3736,-1181.1547,-26.3322,177.8177,-101.1810
2.4840,-1172.4191,-31.4786,177.6746,-101.5289
2.5759,-1163.7711,-36.7895,177.6000,-101.6843
2.6768,-1154.9139,-42.1622,177.1956,-102.3792
2.7752,-1146.6298,-46.7683,177.0225,-102.9396
2.8753,-1137.8428,-51.6833,176.5698,-103.5086
2.9760,-1128.4958,-57.4367,177.9269,-105.4629
3.0763,-1118.6579,-61.9948,173.6193,-104.5431
3.1776,-1110.6676,-66.6878,172.9028,-104.5569
3.2768,-1102.5791,-71.7262,172.6061,-104.9608
3.3768,-1093.9271,-77.1353,172.4034,-105.4672
3.4783,-1085.3794,-82.4675,172.1376,-105.7937
3.5782,-1076.8653,-87.8152,171.9462,-106.1184
3.6806,-1068.3951,-93.0091,171.6355,-106.5355
3.7775,-1059.8723,-98.1890,171.2870,-107.1766
3.8782,-1051.6909,-103.1247,171.1285,-107.4624
3.9780,-1043.5916,-108.3115,170.8891,-107.8284
4.0785,-1035.1542,-113.5520,170.6909,-108.2884
4.1796,-1026.6390,-118.8281,170.5491,-108.4733
4.2823,-1018.0460,-124.2886,170.3939,-108.7187
4.3797,-1009.8256,-129.5859,170.1769,-109.0951
4.4797,-1001.4365,-134.7030,169.8840,-109.5768
4.5794,-993.2233,-140.1708,169.8357,-109.6930
4.6812,-984.2888,-146.1066,168.5775,-108.8782
4.7801,-976.3008,-151.1116,169.2192,-110.0217
4.8807,-968.2288,-156.2228,168.9347,-110.7867
4.9828,-959.5307,-161.5827,168.6783,-111.2086
5.0835,-950.6590,-167.2449,168.4927,-111.4745
5.1824,-942.3512,-172.7747,168.2446,-111.8329
5.2837,-934.1682,-178.0274,168.1523,-112.0281
5.3825,-926.0615,-183.4765,167.9290,-112.5748
5.4830,-917.5395,-189.1545,167.7524,-112.7980
5.5840,-909.3821,-194.8359,167.6423,-113.0011
5.6827,-901.1330,-200.5542,167.4250,-113.4010
5.7825,-892.7063,-206.1748,167.2296,-113.5787
5.8824,-884.3744,-211.8041,167.1257,-113.8669
5.9827,-876.1570,-217.3097,166.8298,-114.2923
6.0834,-867.8884,-222.7972,166.5129,-114.6909
6.1841,-859.7743,-228.0939,166.2864,-115.0710
6.2873,-851.5497,-233.6121,166.0693,-115.4305
6.3856,-843.5696,-239.1000,166.4606,-114.9470
6.4898,-843.4040,-241.7048,173.7618,-103.3985
6.5872,-843.7230,-243.8447,179.2632,-93.6232
6.6837,-837.2180,-247.2212,178.5043,-95.1050
6.7844,-827.7078,-252.2148,178.1348,-95.7225
6.8846,-818.8172,-256.9174,177.7872,-96.3784
6.9850,-810.1688,-261.7517,177.5918,-96.8595
7.0847,-801.4700,-266.5838,177.3102,-97.2970
7.1864,-793.0225,-271.1866,177.1250,-97.7984
7.2873,-784.2621,-275.8041,176.8026,-98.3122
7.3877,-775.4341,-280.5791,176.5671,-98.6731
7.4873,-766.5635,-285.4464,176.1636,-99.2839
7.5869,-758.1314,-290.0758,175.9232,-99.8149
7.6867,-749.9220,-294.8377,175.6454,-100.3213
7.7866,-741.5536,-299.7533,175.4428,-100.7027
7.8868,-733.0694,-304.6352,175.2051,-101.0553
7.9875,-724.7079,-309.6002,175.0538,-101.2841
8.0876,-716.0986,-314.6428,174.9561,-101.4722
8.1888,-707.4089,-319.5756,174.7034,-102.0500
8.2876,-698.9731,-324.4213,174.3876,-102.5424
8.3877,-690.6739,-329.2339,174.1614,-102.9112
8.4888,-682.1761,-334.2364,174.0356,-103.1238
8.5902,-673.5278,-339.4204,174.3638,-102.6093
8.6902,-672.3525,-341.8627,180.2863,-91.6965
8.7910,-672.2764,-343.9471,184.8252,-82.3403
8.8898,-665.4391,-347.1050,183.9059,-84.3253
8.9897,-655.9682,-351.4862,183.6679,-84.6702
9.0899,-646.7841,-355.6730,183.4440,-85.1806
9.1902,-637.6866,-359.8785,183.2598,-85.5963
9.2902,-628.7953,-364.0247,182.9265,-86.1431
9.3900,-620.0128,-367.9760,182.7782,-86.7307
9.4932,-611.4215,-372.0569,182.6761,-86.9776
9.5912,-602.3694,-376.3715,182.6693,-87.0182
9.6938,-593.2861,-380.5931,182.5231,-87.3203
9.7929,-584.0286,-384.7029,182.3210,-87.6409
9.8895,-574.9593,-389.1068,182.1691,-87.9793
9.9935,-566.3854,-393.4137,181.8695,-88.5068
10.0937,-557.6961,-397.7010,181.5633,-89.2062
10.1949,-548.8216,-402.0591,181.3524,-89.7001
10.2924,-540.0270,-406.3920,181.1505,-89.8241
10.4022,-537.6910,-408.9189,185.7794,-79.9218
10.4933,-535.3045,-411.4354,188.5067,-73.4230
10.5931,-528.2622,-414.2283,187.7163,-75.1400
10.6933,-518.5286,-418.0261,187.2845,-76.2984
10.7930,-508.9923,-421.8780,187.1314,-76.6852
10.8933,-499.7927,-425.7555,187.1115,-76.8868
10.9933,-490.6392,-429.5043,187.0775,-77.2515
11.0937,-481.2947,-433.2632,186.5713,-77.9701
11.1937,-471.9192,-437.1180,186.3785,-78.5525
11.2939,-462.5029,-441.2818,186.4376,-78.7063
11.3944,-460.1716,-443.9364,190.9028,-66.8488
11.4951,-457.7243,-446.2046,193.3831,-59.2456
11.5971,-455.2973,-448.1875,195.3241,-52.8571
11.6962,-447.6488,-450.2641,194.5989,-55.4675
11.7952,-437.2683,-453.3383,194.1904,-56.7269
11.8973,-427.2183,-456.3644,194.0764,-57.3411
11.9965,-417.3630,-459.3137,193.9149,-57.7130
12.0957,-407.6123,-462.2491,193.7433,-58.1160
12.1997,-397.4900,-465.2116,193.6551,-58.6607
12.2976,-387.5895,-467.9801,193.6164,-58.8839
12.3993,-377.9748,-470.8284,193.6080,-58.9339
12.4983,-368.5618,-473.8123,193.5830,-58.9968
12.5987,-359.2508,-477.0717,193.7050,-58.6656
12.6975,-356.2969,-479.4513,196.6322,-47.5564
12.7986,-354.9310,-481.4293,199.0668,-36.4607
12.8987,-347.4408,-482.9415,198.7532,-38.2567
12.9983,-337.8730,-484.8059,198.6313,-38.4895
13.0991,-328.1808,-486.5970,198.5930,-39.0214
13.1992,-318.6302,-488.4182,198.5061,-39.2183
13.2986,-308.8496,-490.0877,198.3763,-39.7671
13.3990,-298.9641,-491.9041,198.4016,-40.0204
13.4993,-289.5291,-493.9220,198.3691,-40.1200
13.5989,-286.9848,-496.1452,200.4335,-28.1129
13.7023,-286.1153,-498.9456,201.8410,-14.6754
13.7992,-278.8177,-499.6375,201.7557,-16.4966
13.9011,-268.4390,-500.3297,201.6442,-17.0280
13.9996,-258.0024,-501.0953,201.5812,-17.5901
14.1002,-247.5439,-501.9750,201.6201,-17.8095
14.2036,-243.6218,-503.5073,202.2407,-7.0723
14.3032,-241.1826,-505.1785,202.3704,3.3611
14.3420,-234.8677,-505.3714,202.3908,4.8425
14.5075,-222.6150,-505.1182,202.3560,2.7314
14.6019,-210.8590,-505.2021,202.3767,1.8765
14.7023,-200.3270,-505.1324,202.3426,1.4749
14.8010,-189.7917,-505.0438,202.3283,1.1203
14.9023,-179.1136,-504.8898,202.3494,0.5065
15.0019,-168.5015,-504.7903,202.3101,0.1830
15.1045,-157.6921,-504.6205,202.3476,-0.1908
15.1418,-147.2698,-504.5610,202.3068,-0.4668
15.3047,-137.2143,-504.4826,202.3457,-0.6299
15.4011,-127.6037,-504.7697,202.1380,-1.6343
15.5054,-117.6394,-504.6475,202.2155,-2.3578
15.6019,-107.8129,-504.5317,202.3179,-3.1065
15.6422,-97.5285,-504.8343,202.3480,-3.1743
15.8053,-87.1833,-505.0523,202.4092,-3.1945
15.9033,-77.0171,-505.1210,202.3190,-3.5471
16.0047,-67.3023,-505.1820,202.4273,-4.6182
16.1054,-57.6269,-505.1289,202.3850,-5.4470
16.2035,-47.7382,-505.4108,202.3863,-5.6674
16.3098,-37.8668,-505.6008,202.4136,-6.0708
16.4059,-27.7512,-505.8625,202.4303,-6.5792
16.4423,-17.8389,-506.1936,202.3777,-7.0853
16.6056,-7.8816,-506.5822,202.4226,-7.6710
16.7045,-4.0950,-508.1187,202.4104,2.9280
16.8037,-1.4109,-509.7042,202.0242,12.1588
16.9045,6.0845,-509.3393,202.0894,10.7394
17.0050,16.1567,-508.9061,202.2412,10.0928
17.1048,26.5563,-508.4176,202.3750,9.5272
17.2041,37.0530,-507.8263,202.3786,9.0553
17.3060,47.3359,-507.1780,202.3930,8.7779
17.4057,57.3652,-506.5487,202.3928,8.7982
17.5069,66.8021,-506.1367,202.3710,8.0707
17.6099,76.2359,-505.9683,202.4605,7.8137
17.7094,86.1613,-505.4925,202.4325,7.4380
17.8071,96.0878,-505.1508,202.4257,6.9924
17.9074,106.2645,-504.5813,202.4418,6.4874
18.0072,116.1170,-504.2735,202.5330,5.9301
18.1097,126.0997,-504.0756,202.5189,5.7177
18.2068,136.1288,-503.7627,202.5418,5.4899
18.3073,139.6964,-505.3102,201.8421,17.1371
18.4135,141.1530,-506.8356,200.5929,28.6465
18.5139,147.6378,-506.3854,200.6494,28.2490
18.6096,157.1529,-505.2395,200.6781,27.7729
18.7089,167.0127,-503.7479,200.7476,26.9374
18.8086,176.8137,-502.3480,200.8804,26.3941
18.9169,186.4991,-500.9980,200.9283,26.0859
19.0117,196.5182,-499.5230,200.9630,25.5872
19.1122,206.3052,-498.3006,201.0794,25.0341
19.2119,216.3572,-496.9927,201.0992,24.8358
19.3119,226.4450,-495.8735,201.0963,24.5257
19.4159,236.2968,-494.6891,201.1892,23.9386
19.5146,246.4549,-493.3443,201.2404,23.7601
19.6149,256.2697,-491.9852,201.2400,23.5936
19.7144,266.2175,-490.6029,201.2623,23.6873
19.8107,276.0932,-489.3249,201.2374,23.3915
19.9113,285.5714,-488.2631,201.3338,22.9805
20.0105,295.2472,-487.1868,201.3927,22.5448
20.1147,305.1415,-486.1006,201.4038,22.1920
20.2110,314.9134,-484.9570,201.4895,21.7061
20.3132,324.8070,-483.7900,201.5544,21.2239
20.4132,334.5808,-482.5850,201.5929,20.4092
20.5135,344.3444,-481.5945,201.6187,20.2766
20.6133,353.8931,-480.6763,201.6124,20.1225
20.7134,363.5576,-479.6734,201.6452,19.8887
20.8125,373.3653,-478.5323,201.7374,19.1287
20.9147,383.3254,-477.3216,201.8051,18.6251
21.0140,393.3456,-476.3507,201.7889,18.0239
21.1133,403.3153,-475.4337,201.8749,17.6478
21.2137,413.3236,-474.5569,201.8683,17.2458
21.3137,423.0752,-473.8044,201.9102,16.9769
21.4151,432.9751,-472.9655,201.9878,16.4478
21.5215,442.9417,-472.0480,201.9701,16.0771
21.6198,453.1912,-471.1775,202.0160,15.6937
21.7154,463.5144,-470.0894,202.0197,15.4205
21.8157,473.5345,-469.2035,202.0463,15.4228
21.9156,478.0482,-470.2867,200.9502,25.7848
22.0156,481.1122,-471.7711,199.3925,36.0161
22.1159,487.0838,-470.8382,199.3945,35.8107
22.2165,496.2289,-469.2458,199.5137,35.5393
22.3177,505.9648,-467.7085,199.5880,35.1534
22.4172,515.6798,-466.0426,199.6465,34.6497
22.5224,525.3195,-464.3620,199.7210,34.1601
22.6213,535.2259,-462.6117,199.8517,33.4358
22.7232,545.0212,-460.6764,199.9171,32.9049
22.8210,554.7638,-458.7633,199.9780,32.5244
22.9182,564.1285,-457.3404,200.0824,32.0334
23.0179,573.9340,-455.8789,200.1421,31.7155
23.1180,583.8242,-454.3091,200.2568,31.3863
23.2185,593.5468,-452.7937,200.2337,30.8268
23.3206,603.5107,-451.1137,200.3254,30.5027
23.4203,613.2543,-449.6412,200.4453,29.7089
23.5208,622.8886,-448.1165,200.5084,29.3038
23.6200,632.6345,-446.5592,200.6102,28.6927
23.7250,642.2104,-445.2119,200.7000,28.1321
23.8243,651.8663,-443.8299,200.7483,27.7455
23.9224,661.6629,-442.2979,200.7575,27.4561
24.0240,671.6877,-440.9069,200.7861,27.4850
24.1205,681.7863,-439.3977,200.7427,27.7453
24.2208,691.3035,-438.1079,200.7848,27.2280
24.3210,700.6865,-436.7402,200.8873,26.5873
24.4214,710.1296,-435.3202,201.0024,26.0214
24.5462,719.5875,-434.1257,200.9952,25.7596
24.6327,729.3116,-432.7671,201.0905,25.3354
24.7270,739.3775,-431.3740,201.1107,24.8492
24.8238,749.3428,-430.0747,201.1409,24.4127
24.9233,755.4009,-429.9942,200.1234,31.7801
25.0287,758.6700,-431.2532,198.3198,41.7571
25.1303,764.6615,-430.3302,198.1194,42.4793
25.2244,773.8757,-428.2654,198.2517,41.8810
25.3243,783.8493,-426.0800,198.3043,41.3610
25.4247,794.1469,-424.0466,198.3384,41.1472
25.5251,804.2871,-422.0088,198.3805,41.0666
25.6252,814.1862,-419.9932,198.4430,40.7633
25.7243,823.9626,-417.7598,198.5519,40.1074
25.8300,833.4237,-415.7269,198.7220,39.5914
25.9279,843.0821,-413.6993,198.8060,39.1284
26.0258,852.7099,-411.6451,198.8541,38.6590
26.1257,862.2345,-409.7633,198.8975,38.4829
26.2260,871.8291,-407.7784,198.9326,38.3472
26.3259,881.6956,-405.7500,198.9114,38.3122
26.4314,891.2020,-403.8373,198.9130,38.3703
26.5303,900.5822,-401.9034,199.0551,38.0294
26.6306,909.8264,-400.2060,199.1407,37.4836
26.7273,919.1472,-398.4685,199.2034,36.9588
26.8339,928.8412,-396.4972,199.2911,36.5625
26.9314,938.2932,-394.7918,199.4271,35.7618
27.0277,948.0545,-392.8755,199.5445,35.0257
27.1275,957.7654,-391.0595,199.5732,34.7141
27.2290,967.6001,-389.2978,199.7036,34.0836
27.3329,973.4167,-389.4169,198.0568,42.7102
27.4317,975.3419,-390.1343,195.5651,53.0260
27.5407,979.2354,-389.3207,194.9865,55.1016
27.6353,988.8517,-386.7665,195.2941,53.9323
27.7326,998.7690,-383.9371,195.4464,53.2348
27.8332,1009.0109,-381.2772,195.5945,52.7859
27.9380,1018.9783,-378.6440,195.7052,52.5615
28.0362,1028.7411,-376.2010,195.8505,52.1168
28.1388,1038.4910,-373.5283,195.9411,51.5869
28.2377,1048.2204,-370.8152,196.1597,50.9506
28.3353,1057.7194,-368.3161,196.2136,50.5753
28.4317,1067.1261,-365.8549,196.2903,50.2292
28.5320,1076.8286,-363.3076,196.4344,49.9411
28.6319,1086.4957,-360.6941,196.4683,49.6726
28.7315,1096.4850,-357.8091,196.4716,49.4671
28.8462,1105.9853,-355.4265,196.5594,49.2673
28.9388,1115.1089,-353.2052,196.5770,49.2203
29.0461,1124.5586,-350.8548,196.6489,48.8999
29.1394,1134.0479,-348.4731,196.8326,48.2338
29.2330,1143.5301,-346.0865,196.9078,47.8270
29.3457,1152.9831,-343.6936,196.9808,47.6298
29.4394,1162.3522,-341.4691,196.9330,47.3571
29.5351,1171.7105,-339.0482,197.0844,46.9974
29.6354,1180.4625,-336.9565,197.1660,46.4530
29.7346,1189.4709,-334.7025,197.1970,46.0591
29.8394,1195.1107,-334.4783,195.2953,53.6925
29.9372,1196.9922,-335.8743,191.6865,65.5304
30.0417,1200.5859,-335.2861,190.3497,69.2309
30.1418,1209.1364,-332.1307,190.7043,68.3672
30.2378,1218.7892,-328.6415,190.8835,67.7421
30.3353,1228.3165,-324.9970,191.2014,66.8356
30.4380,1237.4989,-321.7854,191.3240,66.2934
30.5410,1246.7380,-318.6399,191.5426,65.7917
30.6410,1255.7303,-315.4247,191.6753,65.3519
30.7380,1264.5875,-312.2560,191.8784,64.9022
30.8364,1273.5948,-309.1245,191.9976,64.4222
30.9403,1282.9664,-305.8318,192.1451,64.1316
31.0377,1292.3262,-302.5351,192.2266,63.7824
31.1370,1302.0857,-299.3536,192.1335,63.9590
31.2382,1311.4352,-296.3580,192.3326,63.5304
31.3378,1320.5246,-293.4007,192.4733,62.9608
31.4439,1330.0839,-290.1954,192.6777,62.2065
31.5422,1339.5840,-287.1674,192.8292,61.7748
31.6413,1349.0709,-283.9665,192.9177,61.4388
31.7400,1358.5626,-280.9196,193.0646,61.0990
31.8392,1368.1891,-277.9203,193.1355,60.7448
31.9463,1377.4897,-274.8900,193.3214,60.2495
32.0503,1384.8948,-273.4279,191.3496,66.1809
32.1522,1387.9792,-274.0404,187.7012,76.0690
32.2525,1392.5301,-273.1306,186.0985,79.6577
32.3535,1401.1829,-269.6083,186.6106,78.5389
32.4538,1410.6353,-265.7225,186.8069,78.1781
32.5556,1420.1327,-261.6677,186.8499,77.9189
32.6568,1429.4524,-257.5791,187.1106,77.3236
32.7584,1438.4917,-253.7766,187.2319,76.8539
32.8608,1447.4172,-249.9382,187.5724,76.1811
32.9636,1456.4100,-246.3483,187.5187,76.2265
33.0654,1465.3345,-242.7327,187.6022,76.1439
33.1674,1474.1632,-238.9293,187.7512,75.7563
33.2700,1483.2119,-235.1112,187.8307,75.5609
33.3730,1492.4637,-231.2109,187.8910,75.3854
33.4786,1501.6399,-227.6074,187.8784,75.4915
33.5883,1510.2611,-224.0772,187.6089,76.0618
33.6943,1513.5880,-224.6204,182.8417,87.0021
33.8000,1515.5898,-226.3732,176.1603,99.8276
33.9043,1516.6820,-227.9622,168.9685,111.4807
34.0087,1522.1600,-224.2255,169.1049,111.3152
34.1134,1529.9673,-219.2679,169.3998,110.8103
34.2183,1538.1051,-213.9763,169.8435,110.1528
34.3233,1545.9857,-208.8220,170.2395,109.6224
34.4289,1554.0131,-203.7060,170.5131,109.1486
34.5346,1562.0300,-198.4695,170.7174,108.8718
34.6407,1578.6477,-187.8383,171.1069,108.1846
34.7464,1587.0057,-182.6075,171.3137,107.8939
34.8528,1595.4069,-177.4700,171.5269,107.5556
34.9653,1603.8184,-172.2156,171.8367,107.0275
35.0723,1612.2709,-166.8375,172.0898,106.5699
35.1854,1620.5798,-161.5957,172.2510,106.3639
35.2944,1629.0162,-156.3658,172.5221,105.9558
35.4020,1637.4100,-150.9786,172.7811,105.5262
35.5255,1645.8541,-145.6349,172.9709,105.1430
35.6376,1654.2837,-140.4791,173.2844,104.6648
35.7454,1672.0045,-130.0832,173.4845,104.3050
35.8543,1680.8416,-124.6200,173.7517,103.8232
35.9637,1689.8177,-119.0352,173.9546,103.4564
36.0740,1697.6509,-114.0939,173.0287,104.9846
36.1830,1700.9927,-114.3839,166.3862,115.2199
36.2921,1705.2230,-114.0716,160.1058,123.8370
36.4016,1709.4468,-113.2591,154.1748,131.1031
36.5126,1714.9667,-108.5938,155.1266,129.9800
36.6257,1722.3228,-102.4739,155.6213,129.4123
36.7362,1730.4865,-95.9005,155.8317,129.1196
36.8470,1746.0828,-82.9692,156.6278,128.2195
36.9577,1754.0079,-76.3492,156.7535,128.0114
37.0703,1761.1254,-70.4696,154.4158,130.7458
37.1849,1763.3656,-67.9820,148.7883,137.1482
37.2998,1766.2792,-66.2913,142.7377,143.4925
37.4117,1769.4857,-64.9165,136.1248,149.7648
37.5253,1772.5164,-63.5664,128.8175,156.0723
37.6383,1775.9796,-62.3761,120.4700,162.6625
37.7506,1782.7739,-58.5357,103.8580,173.6997
